LabVIEW Measurement,
Writer_Version,2
Reader_Version,2
Separator,Comma
Decimal_Separator,.
Multi_Headings,Yes
X_Columns,No
Time_Pref,Relative
Operator,Chris Neils
Date,2014/01/22
Time,14:42:05.1354317665100097656
***End_of_Header***,
,
Channels,1,
Samples,1250,
Date,2014/01/22,
Time,14:42:05.1354317665100097656,
X_Dimension,Time,
X0,0.0000000000000000E+0,
Delta_X,1.000000,
***End_of_Header***,,
X_Value,Untitled,Comment
,0.313625
,0.388625
,0.446875
,0.468750
,0.489750
,0.495125
,0.501875
,0.502375
,0.509625
,0.513750
,0.514500
,0.516375
,0.520875
,0.514500
,0.515250
,0.516750
,0.506250
,0.501250
,0.490750
,0.482750
,0.473375
,0.458500
,0.441500
,0.428625
,0.418000
,0.388500
,0.383250
,0.390750
,0.380000
,0.394750
,0.411125
,0.433125
,0.452125
,0.469875
,0.485250
,0.501625
,0.520750
,0.517125
,0.521375
,0.533500
,0.528000
,0.535875
,0.534125
,0.535375
,0.536625
,0.538875
,0.536375
,0.534000
,0.543125
,0.549625
,0.550125
,0.546750
,0.538500
,0.543750
,0.542125
,0.544375
,0.537375
,0.544375
,0.547750
,0.540500
,0.539750
,0.543500
,0.539500
,0.543875
,0.542375
,0.543625
,0.553500
,0.566750
,0.575875
,0.592875
,0.615625
,0.660625
,0.658625
,0.628375
,0.554875
,0.536375
,0.517250
,0.520125
,0.518125
,0.523500
,0.520875
,0.508625
,0.527625
,0.567125
,0.664750
,0.728125
,0.697875
,0.365375
,0.238375
,0.269500
,0.356875
,0.432500
,0.485500
,0.514875
,0.542875
,0.536000
,0.535375
,0.538125
,0.539125
,0.545000
,0.536500
,0.548125
,0.541875
,0.548500
,0.550500
,0.540750
,0.537750
,0.529000
,0.532500
,0.534125
,0.514250
,0.498375
,0.478250
,0.469250
,0.459125
,0.440750
,0.434250
,0.420875
,0.427000
,0.437375
,0.439625
,0.463125
,0.480625
,0.494125
,0.513250
,0.530625
,0.542375
,0.555500
,0.555250
,0.559625
,0.565375
,0.560875
,0.558375
,0.556625
,0.558875
,0.563625
,0.566750
,0.566875
,0.561750
,0.567875
,0.567250
,0.557125
,0.557625
,0.561875
,0.559250
,0.559000
,0.561875
,0.553250
,0.560375
,0.552500
,0.548000
,0.550375
,0.552875
,0.556625
,0.556750
,0.556000
,0.560625
,0.561375
,0.579250
,0.588375
,0.604250
,0.629250
,0.671375
,0.671125
,0.624000
,0.559000
,0.538000
,0.527125
,0.526625
,0.530250
,0.521625
,0.534500
,0.501500
,0.526125
,0.568125
,0.680000
,0.734250
,0.636000
,0.324000
,0.211625
,0.266000
,0.363250
,0.426375
,0.480875
,0.516375
,0.523125
,0.519625
,0.527875
,0.527875
,0.541000
,0.528750
,0.538875
,0.539625
,0.535750
,0.538750
,0.534375
,0.533625
,0.535125
,0.517625
,0.510375
,0.500750
,0.490500
,0.470000
,0.451500
,0.437875
,0.420750
,0.409000
,0.398500
,0.387875
,0.382500
,0.392125
,0.417625
,0.419000
,0.445000
,0.468500
,0.480125
,0.493875
,0.509000
,0.516625
,0.522625
,0.515000
,0.518000
,0.530000
,0.527125
,0.529125
,0.534250
,0.524625
,0.526625
,0.528000
,0.528875
,0.524250
,0.532625
,0.527625
,0.529125
,0.536125
,0.532125
,0.532375
,0.535375
,0.534125
,0.535375
,0.534250
,0.527750
,0.532875
,0.531750
,0.529500
,0.524250
,0.524125
,0.535750
,0.538875
,0.554125
,0.561625
,0.576625
,0.623500
,0.652625
,0.625125
,0.572875
,0.512375
,0.500000
,0.489625
,0.491625
,0.492750
,0.498250
,0.487125
,0.472625
,0.501875
,0.583500
,0.673250
,0.715875
,0.467250
,0.214250
,0.178250
,0.256000
,0.356750
,0.421875
,0.451125
,0.481875
,0.495125
,0.488125
,0.501125
,0.504250
,0.504125
,0.501875
,0.506125
,0.497750
,0.495000
,0.491750
,0.497375
,0.493375
,0.483500
,0.475250
,0.454125
,0.454250
,0.446625
,0.424125
,0.410125
,0.392375
,0.373750
,0.372500
,0.350625
,0.355000
,0.352500
,0.358750
,0.374875
,0.392000
,0.415125
,0.432625
,0.447500
,0.461500
,0.466625
,0.485250
,0.487000
,0.485750
,0.489750
,0.491500
,0.491125
,0.485125
,0.486750
,0.486500
,0.489750
,0.494500
,0.496250
,0.498250
,0.495500
,0.499375
,0.499125
,0.494250
,0.492500
,0.499125
,0.492750
,0.504000
,0.494250
,0.493000
,0.510750
,0.493875
,0.504625
,0.504375
,0.507375
,0.514250
,0.523125
,0.529500
,0.566750
,0.606625
,0.635625
,0.611250
,0.551375
,0.497750
,0.487750
,0.474375
,0.479750
,0.469125
,0.468750
,0.457125
,0.445750
,0.473125
,0.571875
,0.649750
,0.680000
,0.412375
,0.178625
,0.161250
,0.245750
,0.329000
,0.398125
,0.421625
,0.455500
,0.471375
,0.469875
,0.474375
,0.477000
,0.477375
,0.479000
,0.476375
,0.477500
,0.476125
,0.483500
,0.477500
,0.476250
,0.471875
,0.460750
,0.465250
,0.454375
,0.434750
,0.422875
,0.406250
,0.393000
,0.373375
,0.360875
,0.359875
,0.352375
,0.361750
,0.370000
,0.376500
,0.400250
,0.419875
,0.431750
,0.446125
,0.469500
,0.471375
,0.481875
,0.480250
,0.483500
,0.485750
,0.489125
,0.492125
,0.493625
,0.492250
,0.488000
,0.489000
,0.488250
,0.485750
,0.489750
,0.487125
,0.485125
,0.473250
,0.479000
,0.488000
,0.474375
,0.481875
,0.479250
,0.479625
,0.474375
,0.477125
,0.479250
,0.482000
,0.489875
,0.511875
,0.515250
,0.539000
,0.580125
,0.619500
,0.599375
,0.554875
,0.488125
,0.462750
,0.457375
,0.457250
,0.451875
,0.460750
,0.447500
,0.426500
,0.447125
,0.509375
,0.613375
,0.660875
,0.497875
,0.215625
,0.125375
,0.183875
,0.284000
,0.353250
,0.396500
,0.424500
,0.436375
,0.438250
,0.443250
,0.449250
,0.448750
,0.448625
,0.466625
,0.463375
,0.464250
,0.460375
,0.452250
,0.455375
,0.453125
,0.437375
,0.442000
,0.431250
,0.412750
,0.402500
,0.391250
,0.379125
,0.362500
,0.355625
,0.343750
,0.338875
,0.337000
,0.359125
,0.364250
,0.386625
,0.405500
,0.435375
,0.444250
,0.453750
,0.463875
,0.467750
,0.480000
,0.476750
,0.481875
,0.476500
,0.471375
,0.470250
,0.465750
,0.459000
,0.466250
,0.466500
,0.469250
,0.473750
,0.474625
,0.480250
,0.478625
,0.487250
,0.488000
,0.487125
,0.489250
,0.502125
,0.495875
,0.500625
,0.496000
,0.499625
,0.503625
,0.504250
,0.505750
,0.534375
,0.542250
,0.569125
,0.599750
,0.625000
,0.581375
,0.523125
,0.492625
,0.475875
,0.466750
,0.471375
,0.471875
,0.468750
,0.468500
,0.468875
,0.500500
,0.612750
,0.645000
,0.675375
,0.358375
,0.188125
,0.205875
,0.278000
,0.356875
,0.416500
,0.453125
,0.479000
,0.481625
,0.495875
,0.495125
,0.490250
,0.500000
,0.501500
,0.496625
,0.493125
,0.500125
,0.511875
,0.505875
,0.504375
,0.502250
,0.494375
,0.481875
,0.472125
,0.461625
,0.447875
,0.424875
,0.403875
,0.410875
,0.391375
,0.386000
,0.377625
,0.388750
,0.403625
,0.424000
,0.437375
,0.465250
,0.484375
,0.490625
,0.501000
,0.505625
,0.510375
,0.524125
,0.510000
,0.518375
,0.517000
,0.517125
,0.519625
,0.508750
,0.517875
,0.513750
,0.516875
,0.510625
,0.501750
,0.506875
,0.500125
,0.510625
,0.505625
,0.500750
,0.505625
,0.499500
,0.497125
,0.498125
,0.489500
,0.499375
,0.505625
,0.483625
,0.505750
,0.498750
,0.518250
,0.537250
,0.553500
,0.598500
,0.618875
,0.585000
,0.529375
,0.480625
,0.471875
,0.463875
,0.462750
,0.463000
,0.449750
,0.449375
,0.447000
,0.475375
,0.577375
,0.640375
,0.665500
,0.349750
,0.170625
,0.166750
,0.260250
,0.340375
,0.395125
,0.429625
,0.454250
,0.455125
,0.457125
,0.453375
,0.469375
,0.465250
,0.471750
,0.463375
,0.468375
,0.473625
,0.462375
,0.456500
,0.457375
,0.458500
,0.449875
,0.440000
,0.424000
,0.406125
,0.399000
,0.376625
,0.357875
,0.349000
,0.336750
,0.330250
,0.323625
,0.330625
,0.346375
,0.362250
,0.385250
,0.401875
,0.409125
,0.432375
,0.441625
,0.447875
,0.454125
,0.457625
,0.469000
,0.460125
,0.461625
,0.460375
,0.461375
,0.456250
,0.457375
,0.457375
,0.465500
,0.453750
,0.453625
,0.463125
,0.460500
,0.459000
,0.456625
,0.455375
,0.448500
,0.449250
,0.447500
,0.455250
,0.447250
,0.451125
,0.443375
,0.446875
,0.454000
,0.458125
,0.464250
,0.458125
,0.471250
,0.494000
,0.495125
,0.532625
,0.577000
,0.581750
,0.534750
,0.472750
,0.440750
,0.419000
,0.414500
,0.420625
,0.419625
,0.419375
,0.405250
,0.402750
,0.448375
,0.563750
,0.627000
,0.589875
,0.261125
,0.088375
,0.129125
,0.218750
,0.303500
,0.359500
,0.393250
,0.415750
,0.413125
,0.424750
,0.419125
,0.432750
,0.423625
,0.434375
,0.424750
,0.432750
,0.432500
,0.436375
,0.429500
,0.426875
,0.421625
,0.420625
,0.413125
,0.403500
,0.379625
,0.367750
,0.343625
,0.329375
,0.319750
,0.308375
,0.301125
,0.296625
,0.305625
,0.319875
,0.330625
,0.359125
,0.379500
,0.394500
,0.415625
,0.422000
,0.438750
,0.440625
,0.446375
,0.447250
,0.444375
,0.450375
,0.455500
,0.438125
,0.441625
,0.449750
,0.444500
,0.448750
,0.447125
,0.451125
,0.449125
,0.452625
,0.452000
,0.453750
,0.456250
,0.458625
,0.447500
,0.456125
,0.449625
,0.462625
,0.450125
,0.451375
,0.461250
,0.448875
,0.452000
,0.457875
,0.450875
,0.471875
,0.463375
,0.481125
,0.492875
,0.535750
,0.570875
,0.585000
,0.542750
,0.479750
,0.450750
,0.442000
,0.440000
,0.441750
,0.436000
,0.443250
,0.423625
,0.431500
,0.476500
,0.585875
,0.623875
,0.581875
,0.263125
,0.136125
,0.185750
,0.280000
,0.343375
,0.390500
,0.424625
,0.434250
,0.444750
,0.449750
,0.461000
,0.459250
,0.463125
,0.468750
,0.467625
,0.460125
,0.465625
,0.458500
,0.457750
,0.458875
,0.449750
,0.453875
,0.441250
,0.430625
,0.413500
,0.396500
,0.380250
,0.367000
,0.351250
,0.345250
,0.347375
,0.341500
,0.349375
,0.347500
,0.377000
,0.388375
,0.414000
,0.427375
,0.452250
,0.463375
,0.461500
,0.485000
,0.486125
,0.486250
,0.485875
,0.492375
,0.490000
,0.484750
,0.485500
,0.501125
,0.489250
,0.489000
,0.497125
,0.499000
,0.501875
,0.491625
,0.500500
,0.495125
,0.499375
,0.497000
,0.503750
,0.501875
,0.494250
,0.500750
,0.500500
,0.492250
,0.499000
,0.496500
,0.504500
,0.490125
,0.488375
,0.489750
,0.505000
,0.524375
,0.510000
,0.532625
,0.566375
,0.603750
,0.595375
,0.544625
,0.501750
,0.481625
,0.473000
,0.466750
,0.470125
,0.461250
,0.458250
,0.442250
,0.480375
,0.541625
,0.651875
,0.675750
,0.435875
,0.210125
,0.174000
,0.254125
,0.335625
,0.393250
,0.423250
,0.445875
,0.451500
,0.459125
,0.463250
,0.462250
,0.466125
,0.462875
,0.469500
,0.459625
,0.460500
,0.461125
,0.456750
,0.457250
,0.460375
,0.450875
,0.436250
,0.429125
,0.409500
,0.402250
,0.381125
,0.369625
,0.348875
,0.346500
,0.322250
,0.322500
,0.326500
,0.333500
,0.349125
,0.369750
,0.393625
,0.416500
,0.423875
,0.444250
,0.446250
,0.458875
,0.461375
,0.463625
,0.470750
,0.458250
,0.474875
,0.466250
,0.466000
,0.467000
,0.467500
,0.474625
,0.475000
,0.468125
,0.474625
,0.475125
,0.475750
,0.474375
,0.470750
,0.470500
,0.470500
,0.465125
,0.468375
,0.471250
,0.467125
,0.457500
,0.472125
,0.461375
,0.461000
,0.457250
,0.462500
,0.461750
,0.459750
,0.462375
,0.465625
,0.472125
,0.485250
,0.499125
,0.524250
,0.572125
,0.575875
,0.538750
,0.465375
,0.441500
,0.428000
,0.420875
,0.420750
,0.421625
,0.419875
,0.410625
,0.409875
,0.451250
,0.569375
,0.615625
,0.535500
,0.213875
,0.092000
,0.143250
,0.245125
,0.318875
,0.363500
,0.391625
,0.407000
,0.410625
,0.412375
,0.422625
,0.419750
,0.422625
,0.427750
,0.433625
,0.419250
,0.419250
,0.428625
,0.427500
,0.426125
,0.422750
,0.414125
,0.399875
,0.388000
,0.361875
,0.342250
,0.341625
,0.321625
,0.299625
,0.291500
,0.286875
,0.281125
,0.291375
,0.299875
,0.330500
,0.349250
,0.365750
,0.383625
,0.405875
,0.407375
,0.416375
,0.424625
,0.428375
,0.426750
,0.431500
,0.428000
,0.424125
,0.423500
,0.420625
,0.427625
,0.428250
,0.434250
,0.436750
,0.432750
,0.435125
,0.435500
,0.438125
,0.438375
,0.440375
,0.439000
,0.437000
,0.446625
,0.435750
,0.432625
,0.432000
,0.437000
,0.443250
,0.436500
,0.431250
,0.438500
,0.438625
,0.435125
,0.435875
,0.439125
,0.447000
,0.466125
,0.476625
,0.491750
,0.533625
,0.563750
,0.548125
,0.496625
,0.431500
,0.410250
,0.403125
,0.402625
,0.396250
,0.408000
,0.391250
,0.379250
,0.415125
,0.493375
,0.573750
,0.614125
,0.417500
,0.150250
,0.101875
,0.172750
,0.265750
,0.323500
,0.375375
,0.398375
,0.404125
,0.413875
,0.412500
,0.418625
,0.428250
,0.428500
,0.430750
,0.438250
,0.438375
,0.438375
,0.438000
,0.430000
,0.443875
,0.423250
,0.435250
,0.408125
,0.401375
,0.377625
,0.366875
,0.348750
,0.336250
,0.317750
,0.314625
,0.304500
,0.321750
,0.335125
,0.337625
,0.348125
,0.371375
,0.394000
,0.412500
,0.429500
,0.449375
,0.446250
,0.471750
,0.456250
,0.461500
,0.470500
,0.457375
,0.471250
,0.464000
,0.467500
,0.472750
,0.475000
,0.476250
,0.468000
,0.483750
,0.470750
,0.476000
,0.480000
,0.471000
,0.471000
,0.471625
,0.475375
,0.473750
,0.477125
,0.482875
,0.477375
,0.470625
,0.477750
,0.472875
,0.478375
,0.475000
,0.480125
,0.483125
,0.483375
,0.496125
,0.517125
,0.524000
,0.552125
,0.588125
,0.587125
,0.536750
,0.476000
,0.461125
,0.449625
,0.450875
,0.454250
,0.444250
,0.447750
,0.438250
,0.462125
,0.523375
,0.617750
,0.649750
,0.506375
,0.237375
,0.174000
,0.239500
,0.319500
,0.386375
,0.423125
,0.451750
,0.450750
,0.460500
,0.460500
,0.467375
,0.471375
,0.477625
,0.482000
,0.481000
,0.479750
,0.482250
,0.475375
,0.482750
,0.476750
,0.472875
,0.464375
,0.462125
,0.447250
,0.422875
,0.425375
,0.398000
,0.378500
,0.370000
,0.360375
,0.355875
,0.348625
,0.351625
,0.365125
,0.393875
,0.408250
,0.433375
,0.449000
,0.465875
,0.475250
,0.486625
,0.480375
,0.494375
,0.500250
,0.498875
,0.495250
,0.494875
,0.504625
,0.507250
,0.499875
,0.502875
,0.501750
,0.505125
,0.502250
,0.496625
,0.504750
,0.505125
,0.492750
,0.501000
,0.492625
,0.497375
,0.495875
,0.491250
,0.498250
,0.487875
,0.485000
,0.500500
,0.486000
,0.489625
,0.496125
,0.506375
,0.504875

